# Average Temperature
# Boundary: top
# Columns:
# 1. time
# 2. Temperature
0.0, 0.0625
0.1, 0.173066296354
0.2, 0.220908879414
0.3, 0.257284359916
0.4, 0.288624255662
0.5, 0.316712223601
0.6, 0.342166334978
0.7, 0.365302373425
0.8, 0.38634804093
0.9, 0.40549618971
1.0, 0.42291885944
1.1, 0.43877176516
1.2, 0.453196395911
1.3, 0.466321446061
1.4, 0.478264003862
1.5, 0.489130605499
1.6, 0.499018188783
1.7, 0.508014957999
1.8, 0.516201170222
1.9, 0.523649851923
2.0, 0.530427450319
